1091
1104
1043
1111
1178
1123
1063
994
952
932
959
938
928
970
960
994
1030
1051
1085
1070
1066
1062
1052
1022
1004
998
964
925
904
866
831
765
703
731
721
743
797
774
773
755
729
692
684
645
620
610
579
655
694
712
734
708
764
757
697
668
632
605
587
588
581
599
633
653
711
766
853
1016
1135
1315
1553
1761
2006
2353
2742
3242
3913
4642
5565
6755
8121
9820
11921
14673
18387
22966
27768
32170
35285
36263
35210
33481
32400
32489
33770
34887
34893
35068
35641
35093
32930
30074
27848
27151
29420
35673
46638
62026
82767
109222
129547
135417
135722
132966
132525
131547
130003
128915
128542
128682
128940
129137
129208
129161
129093
129250
129391
129348
129179
129076
128803
128504
128036
127369
126996
126687
126503
126518
126459
126321
126274
126134
125921
125799
125738
125735
125725
125386
124876
124557
124344
124338
124338
124242
124068
123912
123831
123917
124269
124767
125215
124756
124036
123612
123526
123369
123164
122964
122732
122420
122165
122011
121788
121657
121626
121566
121425
121325
121319
121336
121293
121184
121105
121085
121113
121211
121259
121275
121349
121456
121540
121657
121794
121835
121856
122000
122177
122204
122127
122254
122654
123092
123243
123349
123780
124473
124600
124477
124503
124778
124821
124692
124629
124925
125073
124814
124718
125226
125476
125078
124665
124451
124578
125206
125554
125396
124931
124599
124253
123932
123659
123218
122901
122700
122599
122517
122420
122287
122204
122081
122009
121999
121949
121880
121933
121984
121919
121844
121773
121738
121774
121782
121802
121796
121731
121720
121805
121924
121910
121816
121760
121823
121969
122112
122172
122206
122393
122677
123005
123293
123408
123559
123942
124445
124694
124667
124727
124962
125127
124982
124996
125146
125235
124952
124855
124878
124657
124589
124898
125287
125298
125024
124623
124547
124572
124448
124134
124269
124820
125107
124631
124050
123662
123416
123167
122857
122589
122395
122178
121932
121721
121600
121519
121397
121266
121180
121047
120936
120904
120940
120967
120898
120895
120897
120934
121011
121050
121007
120981
121063
121083
121056
121032
121081
121163
121229
121346
121334
121293
121411
121710
122089
122403
122477
122575
123102
123672
123694
123498
123721
123880
124095
124027
123863
123982
124426
124896
124999
124891
125037
125355
125263
124960
124728
124657
124618
124584
124736
125036
124995
124525
124023
123567
123194
122846
122492
122378
122206
122004
121800
121571
121444
121319
121227
121167
121109
121004
120910
120887
120879
120855
120864
120883
120827
120792
120792
120738
120752
120792
120815
120808
120732
120756
120823
120861
120878
120904
120888
120902
121007
121088
121184
121315
121534
121782
121958
122094
122517
123073
122919
122883
123253
123749
123870
123878
123862
123720
123803
123874
124223
124471
124512
124391
124409
124762
124731
124487
124498
124537
124344
123979
123659
123425
123533
123827
123742
123402
123062
122854
122608
122276
121936
121728
121637
121432
121203
120949
120748
120566
120426
120387
120360
120272
120128
120064
120141
120163
120111
120108
120137
120148
120128
120114
120140
120185
120196
120191
120143
120146
120231
120253
120249
120300
120380
120383
120363
120429
120488
120598
120810
121037
121190
121395
121777
122123
122333
122525
123022
123263
123241
123237
123253
123228
123344
123358
123419
123649
123702
123654
123492
123451
123451
123310
123093
122924
122851
123025
123520
123978
124022
123642
123305
122974
122635
122334
122053
121604
121399
121207
120963
120675
120472
120375
120246
120087
120024
119989
119973
119956
119903
119896
119906
119920
119846
119774
119786
119801
119735
119663
119644
119626
119667
119785
119847
119817
119855
120020
120180
120309
120464
120622
120837
121113
121359
121537
121470
121439
121573
121498
121613
122074
122439
122428
122513
122836
122952
122743
122355
122386
122926
123415
123242
122841
123019
123388
123407
123220
123059
122895
122658
122674
122688
122571
122472
122642
122919
122859
122523
122092
121683
121363
121014
120801
120703
120509
120216
119947
119762
119650
119534
119401
119281
119226
119189
119148
119138
119152
119152
119138
119127
119113
119107
119157
119177
119176
119187
119219
119261
119259
119300
119353
119393
119465
119663
119861
119959
120085
120371
120825
121224
121383
121412
121437
121590
121835
122307
122778
122435
121925
122161
122622
122831
122653
122619
123068
123407
123298
123139
123337
123544
123594
123564
123396
123229
123064
122878
122803
123082
123350
123335
123015
122672
122262
121681
121059
120569
120451
120236
119998
119831
119712
119535
119409
119277
119165
119109
119070
119017
119005
119044
118991
118916
118892
118908
118903
118896
118848
118726
118623
118617
118587
118528
118465
118448
118379
118310
118285
118309
118319
118344
118395
118402
118450
118629
118816
119038
119243
119554
119791
119933
119858
119777
120039
120659
121088
120993
120737
120580
120653
120880
120971
120830
120642
120580
120658
120705
120708
120769
120803
120711
120590
120477
120410
120619
120941
121173
121165
120909
120593
120191
119780
119459
119179
119058
118859
118658
118462
118307
118225
118147
118025
117922
117877
117798
117710
117698
117694
117696
117632
117606
117610
117659
117735
117742
117685
117639
117624
117610
117610
117605
117614
117611
117660
117727
117799
117961
118248
118558
118833
119156
119486
119942
120360
120510
120574
120611
120626
120492
120688
120721
120407
120245
120451
120973
121300
121059
120847
121095
121421
121356
121168
121098
121147
121136
121020
120947
121194
121679
121699
121167
120563
120173
119815
119613
119347
119016
118672
118442
118294
118189
118040
117901
117795
117743
117710
117682
117642
117537
117475
117498
117515
117526
117528
117525
117549
117564
117582
117538
117513
117586
117632
117653
117585
117553
117527
117496
117489
117479
117466
117482
117491
117470
117424
117420
117475
117634
117786
117761
117728
117862
117958
118093
118326
118925
119704
120258
120491
120751
120775
120679
120691
120825
121009
120964
120683
120635
120813
120938
120921
120804
120782
120933
120978
120901
120847
120892
120880
120834
120871
120882
120917
120911
120939
120993
120972
121014
121105
121127
121168
121182
121137
121126
121198
121244
121229
121166
121181
121196
121161
121190
121258
121294
121277
121325
121297
121231
121250
121370
121580
121148
120583
119990
119421
118972
118815
118610
118310
118040
117843
117715
117647
117585
117471
117352
117341
117248
117119
117032
117006
117007
117029
117012
116920
116844
116890
116915
116920
116919
116912
116877
116844
116912
116937
116913
116950
117023
117049
117040
117016
117044
117108
117205
117351
117410
117447
117614
117884
118276
118783
119019
119135
119710
120223
120139
120275
120523
120774
120524
120305
120435
120538
120708
120960
121090
121032
120910
120954
121098
121214
121234
121174
121116
121402
121438
121160
121097
121273
121263
121122
120992
121018
121045
120989
120988
121022
121023
120975
120931
120944
120901
120857
120731
120447
120487
120810
120964
121056
120927
120535
120038
119465
118953
118500
118199
118018
117762
117476
117270
117077
116915
116797
116758
116714
116646
116578
116542
116546
116583
116613
116661
116647
116600
116607
116621
116632
116634
116691
116714
116717
116748
116755
116781
116882
117062
117249
117356
117464
117651
118033
118427
118556
118505
118607
119082
119480
119593
119744
120054
120385
120162
119750
119859
120513
120983
120849
120555
120680
120966
120973
120901
120964
121101
121134
121132
121134
121055
121059
121134
121182
121185
121200
121257
121259
121208
121219
121297
121327
121274
121248
121183
121085
121044
120954
120780
120592
120577
120770
120827
120311
119415
118498
117934
117769
117584
117323
117084
116979
116898
116838
116824
116786
116728
116723
116699
116670
116600
116578
116497
116455
116458
116428
116382
116420
116476
116455
116425
116431
116461
116481
116507
116524
116542
116533
116586
116632
116674
116770
116865
116975
117186
117427
117711
118071
118405
118592
118818
119174
119760
119666
119486
119964
120170
120025
119851
119902
120086
120095
119469
118685
118176
118033
117909
117672
117726
118032
118456
118984
119335
119263
119553
119835
119918
119930
120079
120416
120337
119662
118977
118525
118234
118237
118170
118314
118297
118553
119315
119390
119647
119970
119902
119804
119926
120195
120394
120408
119993
119466
118941
118425
118209
118079
117941
117914
118244
118481
118763
119172
119192
119623
121066
120550
119654
119529
119988
120314
120213
120204
120274
119929
119277
118716
118320
118102
117891
117929
118270
118708
119196
119320
119474
120633
122532
121263
120377
120899
121882
121716
121345
121177
120686
119991
119414
118852
118514
118500
118841
119374
119861
120394
120470
119604
119700
120163
120569
120519
120432
120463
120612
120746
120624
120190
119576
119056
118523
118238
118051
117878
117667
117507
117442
117351
117279
117270
117272
117196
117121
117074
116992
116879
116753
116632
116461
116299
116200
116078
116006
115992
115977
115920
115887
115877
115854
115843
115911
115975
115981
115910
115841
115813
115811
115821
115836
115841
115849
115851
115885
115918
115969
116078
116189
116286
116384
116567
116875
117198
117396
117548
117614
117683
117790
117855
117886
117946
118099
118398
118848
119224
119380
119520
119934
120192
120226
119870
119451
119312
119618
120225
120208
119841
119728
119874
120003
119980
119899
119870
119901
119998
119975
119841
119869
119939
119962
119874
119837
119875
119847
119849
119826
119799
119782
119793
119747
119702
119792
119908
119939
120135
120473
120790
120739
120210
119779
119343
118872
118376
118034
117616
117315
117038
116812
116675
116568
116445
116368
116357
116363
116365
116369
116400
116351
116271
116260
116230
116189
116204
116210
116149
116145
116159
116165
116204
116274
116319
116311
116274
116326
116464
116764
117282
117853
118161
118576
118971
119158
119481
119901
120048
119941
120000
120412
120781
120546
120064
119987
120284
120422
120212
120090
120321
120568
120501
120348
120429
120548
120457
120346
120372
120433
120409
120325
120289
120201
120077
119975
120066
120345
120673
120631
120286
119927
119529
119156
118935
118518
118154
117922
117621
117418
117247
117086
116889
116761
116625
116480
116406
116379
116358
116312
116274
116240
116221
116286
116350
116360
116371
116410
116492
116536
116544
116575
116628
116756
116869
116823
116653
116598
116667
116685
116639
116633
116595
116612
116640
116669
116649
116644
116664
116661
116610
116609
116599
116620
116665
116709
116629
116561
116597
116679
116736
116793
116864
116969
117137
117336
117536
117819
118294
118659
118734
118801
119058
119375
119668
119734
119893
120059
120201
120149
120210
120407
120471
120472
120686
121001
121201
121245
121526
121885
121930
121862
121899
121938
121869
121717
121590
121413
121208
121188
121324
121337
120900
120329
119832
119259
118686
118221
117914
117625
117388
117185
117034
116894
116777
116637
116510
116495
116492
116482
116421
116415
116395
116399
116405
116433
116439
116441
116450
116423
116350
116325
116364
116352
116304
116315
116265
116235
116234
116281
116316
116318
116331
116306
116268
116285
116321
116330
116321
116351
116355
116340
116377
116398
116419
116453
116473
116480
116468
116514
116540
116566
116576
116520
116429
116372
116412
116416
116380
116389
116415
116410
116395
116394
116379
116385
116457
116478
116428
116420
116459
116505
116532
116595
116670
116667
116687
116740
116763
116822
116903
116942
116884
116851
116841
116796
116766
116819
116911
116958
117044
117192
117526
118223
119568
125802
145374
136668
106911
70002
41820
24064
13583
7891
4890
3256
2270
1721
1392
1167
1042
941
878
805
697
671
679
700
672
721
776
756
793
709
697
653
595
601
596
585
538
511
495
514
501
487
531
544
553
558
523
537
591
620
642
673
717
743
760
772
792
781
765
791
744
736
746
742
710
690
666
701
704
734
763
772
778
758
748
737
739
717
705
713
635
654
641
655
693
660
679
660
655
660
646
645
648
660
632
651
660
657
693
671
679
688
653
667
668
642
663
646
639
663
663
677
694
692
683
688
660
658
661
629
654
650
634
675
656
668
696
679
689
687
664
655
648
647
656
678
653
692
686
683
706
679
688
675
662
668
661
659
677
670
678
696
702
692
695
685
665
689
663
6