180
204
231
288
352
423
500
460
423
352
288
259
231
180
204
231
320
460
231
231
500
288
204
460
288
180
423
352
180
320
387
204
288
460
231
231
500
288
180
423
288
180
387
352
180
320
423
204
259
460
231
204
460
259
180
423
320
180
352
387
204
320
423
204
259
460
259
231
423
288
180
423
320
180
387
387
180
320
423
204
259
460
231
180
460
288
156
387
320
180
352
352
180
288
423
204
231
460
231
204
423
259
180
387
352
180
320
387
180
288
423
204
231
460
259
204
423
320
180
387
352
156
320
387
180
259
423
204
231
460
259
204
423
320
180
387
352
180
352
423
204
288
460
259
231
460
288
204
460
320
204
423
387
204
320
460
259
288
500
259
231
540
320
204
460
320
204
387
423
204
320
460
204
288
460
259
231
460
320
204
423
387
204
387
387
204
387
460
231
259
500
288
231
500
288
180
423
320
204
387
423
204
320
460
231
231
460
288
204
460
320
180
423
352
180
352
423
180
288
423
231
259
460
259
204
460
320
180
423
352
180
288
387
180
259
423
231
231
460
259
180
460
320
180
387
387
180
352
423
231
288
460
231
204
460
259
204
423
320
180
387
387
204
352
423
204
288
460
231
204
500
320
180
423
320
180
387
387
204
320
423
231
231
460
231
204
460
288
180
423
320
180
352
387
180
288
387
204
231
460
231
204
460
288
180
423
320
180
352
387
204
288
423
204
231
500
259
180
460
288
180
387
352
180
352
423
180
259
423
204
231
460
288
180
460
288
156
387
352
180
320
387
180
259
460
231
204
460
288
204
423
288
180
387
352
180
320
387
204
259
460
231
204
460
259
180
460
320
180
352
387
204
320
423
204
259
460
231
204
460
288
180
423
320
180
352
387
180
320
423
204
259
460
231
204
460
288
180
423
320
156
320
352
180
288
423
204
231
460
231
204
423
288
180
423
352
180
352
387
180
288
460
204
231
423
231
180
460
288
180
423
352
180
352
423
204
288
460
231
204
460
259
180
423
320
180
387
352
180
320
423
204
259
423
204
204
460
259
180
460
320
180
387
352
180
320
423
204
231
423
204
204
423
259
180
460
320
180
352
352
180
288
423
204
259
423
231
204
423
288
180
423
320
180
352
387
180
288
423
231
231
423
231
204
460
288
180
423
320
180
352
387
180
288
423
204
231
460
231
204
460
288
180
387
352
180
352
423
204
288
423
204
231
460
231
204
460
288
180
387
352
156
320
387
180
288
423
231
231
460
259
180
423
320
180
387
352
180
320
387
180
259
460
231
204
460
259
204
423
320
180
352
352
180
320
423
204
259
460
231
204
423
259
180
423
320
156
352
352
204
320
387
204
259
460
231
204
460
288
180
460
352
180
352
387
180
320
423
204
259
423
259
204
423
288
204
460
352
180
352
387
204
259
423
204
231
460
231
204
460
288
180
387
352
180
320
387
180
288
460
231
231
460
259
204
460
320
180
387
352
180
352
423
204
320
460
231
231
460
259
180
423
320
180
387
352
180
352
387
204
259
460
231
204
460
259
204
423
320
156
352
387
180
288
387
180
204
423
204
180
423
231
156
387
288
135
320
352
156
259
352
156
231
423
204
180
423
231
156
352
288
156
320
352
156
259
387
204
231
423
259
204
423
259
156
352
320
156
320
387
180
259
423
204
231
423
259
204
540
320
180
387
352
180
320
387
180
259
423
204
204
423
259
204
460
320
180
387
387
204
352
460
204
288
460
231
204
460
259
180
460
352
204
387
387
204
352
460
231
320
500
259
231
500
320
204
460
352
204
423
423
231
387
460
259
288
500
259
231
500
320
204
423
352
204
423
423
204
352
500
231
259
460
259
204
460
288
180
423
387
204
387
387
204
320
460
231
259
540
288
259
583
423
259
500
387
204
320
460
259
320
387
156
156
231
135
20
115
180
352
768
819
352
387
500
180
387
871
460
259
540
460
259
500
500
180
231
387
231
352
720
387
423
627
204
352
720
583
259
423
500
320
500
540
320
423
627
352
288
583
320
231
720
627
288
460
500
259
352
583
352
460
924
500
500
768
500
288
540
387
231
460
460
259
423
583
320
352
583
320
259
540
320
204
423
352
204
352
387
180
288
423
204
204
460
204
156
387
231
156
320
288
156
288
320
115
204
352
180
156
320
156
96
259
231
80
156
320
115
115
288
135
80
231
231
80
135
288
115
115
288
135
96
259
231
96
156
288
115
115
288
156
96
259
259
96
156
320
156
135
352
204
115
320
231
135
288
288
135
259
387
180
204
387
204
180
423
231
135
320
288
135
288
320
135
288
387
204
204
387
204
204
423
231
115
259
204
96
204
387
115
156
320
156
96
231
204
96
156
204
28
0
39
64
28
80
423
259
115
259
540
460
180
352
288
231
460
204
352
583
500
352
540
672
583
819
980
819
819
1280
627
423
819
500
387
672
540
500
768
672
387
540
720
352
387
627
387
320
627
423
288
583
352
320
583
423
288
423
540
259
320
460
231
259
500
320
231
500
423
204
460
500
231
288
423
180
231
460
231
180
423
259
180
387
320
156
320
352
156
259
387
180
204
387
204
180
423
231
135
320
259
115
231
259
96
135
320
156
115
320
180
96
204
259
115
156
288
135
135
288
156
115
288
204
80
231
288
115
180
320
115
115
288
135
80
204
204
64
135
259
115
96
288
180
80
204
288
156
180
352
115
115
352
156
115
288
204
115
259
259
96
156
320
156
156
387
204
135
320
231
115
288
288
135
231
387
156
231
387
204
180
500
320
180
387
259
115
320
320
156
231
320
115
135
320
231
259
540
180
96
259
259
64
204
423
96
135
352
423
180
204
259
288
423
500
500
500
672
259
231
819
583
387
720
720
500
540
819
924
1095
1411
871
1155
627
423
720
627
387
627
1344
980
1155
924
540
1036
980
423
500
672
352
352
540
387
288
540
540
352
672
460
320
672
627
288
231
423
231
204
387
231
204
540
387
231
500
583
387
460
583
231
259
423
231
204
500
320
204
540
500
204
352
387
204
288
423
180
204
460
231
204
423
288
156
352
320
135
288
320
115
204
320
135
135
320
135
96
259
204
80
156
288
115
135
288
135
80
204
180
64
135
231
80
80
204
204
64
135
259
115
96
288
156
80
180
231
64
96
259
156
64
156
231
80
96
259
156
64
180
259
156
156
288
115
115
320
135
80
204
231
80
115
259
115
96
259
180
96
204
352
204
204
387
135
115
288
156
96
231
231
96
135
320
156
156
423
231
180
460
320
156
320
320
135
259
423
204
204
352
156
156
387
288
180
423
204
51
204
460
156
80
259
288
320
672
352
288
924
672
259
540
871
460
627
819
460
583
1036
583
720
1095
768
352
980
924
768
720
819
819
1036
924
423
460
672
352
387
387
231
259
540
288
288
627
387
288
352
460
156
288
387
180
231
387
180
204
460
352
288
460
352
204
423
460
204
352
500
231
288
460
259
231
460
288
180
423
387
204
352
320
135
231
352
156
180
352
156
135
352
204
115
288
231
96
204
387
156
135
288
135
80
204
180
64
135
259
96
96
231
180
80
156
288
115
135
259
115
80
231
180
64
135
259
115
115
288
156
96
259
204
96
204
352
204
156
352
204
135
352
204
96
231
320
115
156
288
156
156
156
64
64
231
156
51
64
156
259
231
288
460
180
320
540
387
672
1095
768
672
1344
1095
1036
1155
720
980
980
627
924
1280
720
871
1036
500
672
871
500
540
819
540
500
819
583
460
720
627
387
627
627
320
460
627
320
352
583
320
259
500
352
204
423
352
180
352
320
96
156
288
20
0
20
156
231
96
288
115
28
288
540
259
1843
1036
540
672
768
320
387
871
540
387
627
540
500
627
583
352
672
627
460
627
720
672
460
672
352
204
423
288
180
352
352
156
288
387
180
259
423
204
180
460
231
135
320
288
115
259
204
80
115
231
80
51
156
180
64
96
231
115
51
156
135
39
80
204
96
28
80
156
51
28
115
135
28
64
180
80
39
96
204
64
28
135
180
64
80
231
135
64
180
135
39
80
135
28
0
28
156
28
3
80
204
80
64
135
231
115
204
540
204
320
720
460
583
352
583
583
1216
924
540
768
720
352
387
768
500
583
871
627
540
819
672
423
540
768
352
500
583
352
540
720
387
320
583
423
231
627
460
387
540
500
231
423
583
231
288
720
500
387
627
423
231
540
288
259
460
460
115
288
423
231
320
672
352
204
500
500
288
423
320
156
320
204
156
259
387
156
288
583
231
180
500
387
231
423
259
135
387
387
180
231
387
180
231
500
320
204
387
288
156
460
352
156
259
204
115
204
352
180
180
460
259
180
423
320
231
460
423
156
288
352
156
204
352
156
135
352
180
115
320
231
115
288
259
115
231
288
115
156
320
135
115
288
156
96
231
204
64
135
259
96
64
180
180
64
115
259
115
80
231
156
64
135
231
80
80
231
156
64
135
231
96
80
259
180
80
156
259
96
80
231
180
80
180
288
135
135
320
96
51
180
231
39
12
115
51
39
156
156
12
20
259
288
180
500
352
320
423
320
288
500
672
423
387
924
583
352
720
720
387
819
819
352
540
672
387
352
583
352
288
583
423
259
500
460
259
423
500
259
320
500
259
259
500
288
204
460
320
180
387
387
180
288
423
204
259
460
231
204
423
259
180
288
204
115
96
231
115
115
320
80
28
180
288
259
460
540
387
768
1280
627
500
768
460
720
768
352
259
627
500
460
672
627
387
540
1036
460
627
768
423
288
500
352
320
583
460
352
460
460
288
627
720
352
500
672
352
320
627
500
288
540
352
231
423
320
180
387
423
204
231
423
204
204
387
204
115
320
204
96
204
259
96
115
320
156
96
259
231
96
156
288
135
115
320
156
96
259
231
96
180
320
135
115
320
156
115
288
204
80
204
288
96
115
288
156
80
204
231
64
135
288
135
115
352
180
96
288
288
156
156
180
51
20
135
80
39
180
320
156
156
288
352
156
387
180
51
156
423
204
320
352
352
259
460
320
352
500
423
320
768
924
583
819
1036
288
500
720
423
500
672
460
423
720
500
320
627
627
259
540
768
320
387
768
387
288
627
460
352
627
500
288
540
500
387
500
460
320
387
627
352
259
627
387
320
583
423
320
540
460
204
387
500
231
259
460
288
204
423
288
180
460
259
156
320
320
156
231
352
156
156
387
156
135
320
204
115
288
231
115
231
320
135
231
320
135
156
320
135
96
259
204
64
135
259
96
80
231
180
64
135
259
115
115
320
135
96
259
204
80
156
288
115
135
320
156
115
320
204
135
320
259
115
231
288
115
180
320
156
156
352
204
135
352
231
135
320
288
156
288
352
156
231
423
204
204
423
231
156
387
259
135
320
352
156
288
387
180
231
423
231
180
460
288
156
387
288
156
320
352
156
259
387
204
231
423
231
204
423
320
180
423
352
204
423
387
180
320
460
231
288
500
259
204
460
288
180
387
352
204
387
423
231
352
500
259
204
423
204
156
352
204
115
320
288
135
231
288
135
156
320
135
180
259
96
28
204
500
231
135
423
320
320
540
423
352
627
583
423
871
720
460
672
924
583
627
980
819
720
924
627
423
672
500
320
540
540
288
460
583
320
387
583
320
288
583
423
288
500
423
259
460
460
288
352
500
259
288
540
288
259
500
352
231
460
352
180
352
423
204
320
460
231
259
460
259
204
423
320
180
423
352
180
320
352
180
259
387
204
204
423
231
180
460
288
156
352
320
156
288
352
156
259
423
231
204
423
231
156
387
259
135
352
352
156
288
352
180
259
423
180
180
460
231
156
387
259
156
320
320
135
259
320
156
231
500
352
231
387
259
180
320
204
135
387
320
115
231
387
51
135
540
115
115
423
320
156
387
320
135
96
387
288
259
583
460
460
768
627
500
871
871
720
627
768
460
500
768
423
387
672
500
352
672
583
352
540
540
288
387
583
288
320
627
352
288
583
387
259
500
500
259
423
500
288
352
540
259
259
500
288
204
460
320
180
387
352
180
352
387
204
288
423
180
156
387
204
135
352
231
135
320
288
135
259
352
156
204
387
231
180
387
204
135
352
231
115
288
288
115
231
320
135
180
387
180
156
352
231
135
320
259
135
288
320
135
231
352
156
204
387
204
156
423
259
156
423
288
156
288
320
135
231
387
156
180
387
204
156
387
259
156
387
320
156
320
387
156
180
320
115
320
460
180
180
540
387
115
288
352
156
320
352
231
259
460
156
204
583
320
231
583
500
387
768
720
423
672
672
387
500
720
500
423
672
460
423
768
720
423
720
627
423
627
720
387
423
672
387
352
720
460
352
672
500
320
627
583
288
387
500
259
288
500
259
204
500
288
204
423
320
180
352
387
204
288
423
204
231
423
204
180
423
231
135
352
259
115
288
320
135
231
352
156
180
352
180
135
352
204
115
288
259
115
259
288
115
180
320
156
180
387
204
156
423
259
115
288
231
115
231
288
115
180
352
156
156
387
204
135
352
288
135
352
387
156
320
288
96
156
320
64
12
51
115
20
28
180
288
28
180
720
423
288
423
180
115
352
423
259
583
627
320
540
583
288
259
460
352
320
672
460
288
540
460
288
500
460
259
500
627
352
423
720
387
288
500
387
320
583
423
259
500
672
320
423
540
288
288
500
288
204
500
352
204
423
423
204
387
500
204
259
423
204
231
500
231
180
387
288
180
352
320
156
288
352
156
231
387
180
180
423
231
156
387
231
115
320
288
115
231
320
135
204
352
156
180
387
204
156
352
259
135
320
320
135
259
352
180
204
387
156
135
320
180
115
320
231
115
288
288
115
231
352
135
180
387
204
156
387
231
115
320
231
96
204
320
115
156
320
135
115
320
204
115
320
259
135
288
320
115
231
387
180
180
352
156
115
352
204
115
320
259
135
288
320
135
231
387
180
204
387
231
180
423
288
180
387
352
156
320
352
180
259
423
231
204
460
288
204
423
320
204
423
387
204
387
460
231
259
460
231
204
460
288
180
423
320
180
387
387
204
352
460
231
288
460
259
231
500
320
231
500
423
231
387
423
231
320
460
231
288
500
288
259
500
352
259
500
423
288
423
460
259
387
540
320
387
583
352
288
540
387
259
540
460
288
460
500
288
387
540
288
320
540
352
259
540
387
259
500
423
259
423
460
259
320
500
259
288
500
288
231
460
352
231
423
387
204
352
423
231
288
423
259
231
460
259
204
423
288
180
352
320
180
320
387
204
231
387
204
180
387
231
156
387
288
156
352
320
156
288
387
180
204
387
180
156
387
231
156
352
288
156
320
320
135
259
387
180
204
387
180
156
387
231
135
352
288
135
288
320
135
204
352
135
180
387
156
135
352
231
135
352
288
135
288
320
135
231
352
180
180
387
231
156
423
259
156
387
320
156
320
387
180
259
423
180
231
460
231
180
423
288
156
352
352
156
320
387
180
288
423
204
204
460
259
180
423
320
180
423
387
204
352
460
231
320
500
288
231
500
288
180
423
352
180
352
352
156
288
423
204
231
460
259
204
500
288
180
460
352
204
387
423
204
288
460
204
259
500
259
231
500
320
204
460
387
204
423
460
231
352
500
259
288
540
320
259
500
352
231
460
387
231
423
423
231
320
500
259
259
583
320
231
540
352
231
500
423
259
387
500
259
352
540
259
288
540
320
231
500
352
204
423
423
180
387
500
231
288
540
288
288
500
320
204
500
352
204
423
423
204
352
460
231
320
500
288
231
500
320
204
500
352
204
460
423
231
320
423
259
259
500
259
204
500
288
204
423
352
231
387
423
204
320
500
231
288
500
259
231
460
320
180
