55264
51883
50130
49528
49203
48577
47062
44826
42470
40314
38181
36071
33428
31556
30384
29929
29924
30212
31817
42705
72510
96853
107699
117110
124070
118710
98149
72705
57825
51585
25427
16516
20038
22494
17613
14288
12110
9488
7026
6070
6094
5673
5302
6684
13831
10701
1921
1899
1147
803
860
802
796
882
975
1116
1552
2516
4025
5908
8156
10844
14077
15340
13091
11143
10831
12346
16009
21489
26384
23058
11766
5143
2912
2100
1741
1530
1372
1299
1208
1106
1028
973
947
940
838
808
743
679
611
595
563
554
540
531
520
529
516
526
521
536
532
536
545
576
598
641
638
685
768
886
960
1114
1496
1862
2320
2925
3562
3962
3909
3529
3108
2671
2165
1824
1679
1580
1646
1727
1837
1931
2007
1950
1727
1409
1000
583
489
464
463
467
469
491
473
468
472
462
488
478
460
493
477
490
465
470
473
464
478
473
470
479
454
477
467
484
487
487
492
485
555
743
1101
1339
1315
1266
1146
1252
1654
2071
2484
2916
3215
3066
2669
2171
1746
1441
1209
1032
930
844
819
759
814
1374
2102
2136
1762
1668
1843
2168
2596
3100
3125
3260
5326
7103
9382
11327
11609
10856
10668
12173
12553
12143
13141
13566
12927
13021
12342
10200
9024
9117
10288
11862
12760
13030
12396
11115
10773
12815
28600
42781
49586
58218
65819
72175
75354
77875
77034
73882
69426
62949
54792
57040
61363
67447
70316
74177
82065
86483
94250
101668
105428
108377
111078
114836
116587
116285
115999
115646
115227
114953
115199
115528
115893
116153
116101
116261
116327
116811
117446
116984
115753
114266
113326
112820
112840
113649
114273
114062
112513
110721
110745
112428
113982
113569
113556
113102
107549
102881
101679
100525
86981
71090
65519
59605
53323
56033
78070
104122
115505
117563
115904
119981
111929
80242
53554
35323
24170
18636
19815
21044
18881
14186
12275
12065
15990
32054
70024
113641
110983
111497
111689
111423
111169
110911
110607
110424
110351
110341
110308
110145
109943
109866
109707
109498
109428
109509
109831
110411
110953
111294
111254
111261
111306
111295
111130
110970
110607
110238
109951
109737
109559
109490
109517
109530
109506
109528
109532
109511
109453
109431
109346
109255
109203
109194
109157
109121
109056
108995
108946
108918
108873
108837
108818
108789
108762
108733
108731
108740
108718
108701
108690
108685
108609
108460
108369
108356
108359
108215
108094
108094
108157
108162
108127
108092
108124
108278
108748
109203
109533
109758
109928
110014
109970
109916
109913
109822
109761
109746
109599
109507
109527
109430
109430
109299
109216
109188
109262
109234
109132
109136
109191
109186
109124
109113
109070
109080
109095
109081
109023
108866
108732
108673
108577
108527
108400
108283
108202
108193
108198
108239
108258
108238
108245
108245
108252
108280
108346
108502
108720
108875
108977
109170
109395
109501
109514
109418
109348
109218
109103
109008
108938
108881
108881
108821
108791
108737
108700
108695
108702
108696
108706
108691
108694
108678
108686
108684
108703
108680
108691
108684
108677
108679
108680
108688
108685
108678
108677
108670
108613
108567
108483
108522
108579
108633
108667
108693
108704
108768
108791
108805
108835
108838
108834
108833
108839
108896
109061
109220
109371
109794
110211
110412
110444
110292
110048
109749
109499
109300
109152
109076
108975
108931
108869
108845
108832
108844
108806
108794
108804
108795
108783
108786
108767
108779
108758
108746
108732
108768
108809
108978
109137
109288
109366
109555
109578
109479
109363
109351
109346
109363
109410
109394
109318
109306
109296
109303
109308
109360
109409
109614
109885
110316
111011
111580
111771
111721
111532
111236
110846
110484
110130
109879
109678
109545
109420
109350
109277
109233
109206
109207
109206
109189
109139
109111
109067
109057
109037
109061
109053
109075
109109
109188
109246
109331
109383
109514
109687
109862
109987
109919
109753
109631
109639
109692
109656
109609
109579
109610
109640
109672
109700
109758
109785
109788
109763
109772
109783
109792
109845
110003
110151
110447
110918
111278
111351
111260
110958
110628
110312
110038
109766
109547
109420
109352
109286
109242
109174
109146
109119
109086
109050
109032
109000
108977
108942
108932
108933
108928
108907
108905
108921
109033
109233
109419
109682
109915
110035
109851
109712
109743
109680
109597
109506
109409
109310
109182
109157
109184
109242
109230
109209
109217
109254
109307
109412
109543
109691
109941
110201
110531
110814
111059
111197
111042
110745
110459
110168
109941
109714
109520
109422
109365
109331
109294
109236
109188
109132
109099
109038
109029
109014
109033
109022
109015
109002
109007
108996
109007
109026
109152
109320
109512
109700
109925
110172
110259
110023
109860
109801
109736
109627
109554
109457
109474
109495
109554
109588
109648
109649
109680
109679
109682
109752
109899
110172
110640
111098
111369
111428
111290
111014
110725
110419
110162
109905
109708
109538
109463
109393
109355
109269
109202
109137
109098
109070
109060
109028
109035
109025
109008
108991
109001
108999
109037
109016
109058
109115
109228
109394
109572
109799
110007
110138
110158
110194
110222
110230
110234
110206
110213
110225
110248
110290
110286
110272
110239
110221
110214
110221
110219
110269
110418
110771
111152
111409
111460
111311
110997
110725
110447
110214
109996
109864
109782
109737
109665
109621
109565
109510
109463
109438
109421
109435
109411
109403
109373
109365
109352
109362
109354
109356
109367
109403
109521
109678
109883
110195
110395
110277
110053
109840
109850
109881
109820
109759
109712
109699
109732
109746
109772
109744
109713
109673
109639
109653
109702
109767
109904
110059
110279
110684
111110
111270
111299
111140
110856
110519
110229
110022
109897
109787
109717
109636
109593
109544
109513
109446
109411
109386
109369
109345
109320
109297
109294
109281
109297
109267
109255
109263
109286
109280
109303
109317
109348
109493
109729
109912
110126
110354
110126
109864
109803
110023
110366
110712
110927
110998
110986
111053
111087
110981
110720
110350
110083
109955
109877
109892
110048
110413
110367
109822
109713
109824
110050
110421
110835
110984
110729
110354
110197
110285
110632
110692
110177
110165
110562
111009
111242
110976
110511
110435
110568
110773
110557
110335
110473
110827
111016
110706
110310
110251
110440
110664
110552
110173
110304
110741
111173
111179
110769
110413
110386
110536
110780
110588
110364
110401
110757
111138
111178
110886
110534
110200
109877
109653
109494
109392
109305
109231
109209
109241
109225
109220
109202
109212
109216
109241
109337
109565
109807
109944
109884
109339
109160
109288
109486
109462
109364
109313
109289
109332
109375
109372
109367
109320
109333
109343
109350
109377
109345
109324
109328
109334
109315
109307
109276
109262
109230
109203
109224
109246
109243
109270
109270
109255
109287
109276
109273
109298
109303
109305
109337
109458
109614
109801
110239
110942
111731
112344
112588
112526
112179
111763
111349
110937
110643
110427
110276
110113
110011
109919
109840
109798
109774
109768
109755
109730
109728
109736
109713
109706
109695
109732
109714
109701
109699
109712
109729
109742
109745
109741
109743
109758
109757
109784
109781
109790
109787
109777
109785
109804
109803
109867
109983
110231
110452
110743
110951
110717
110343
110278
110391
110412
110433
110426
110477
110566
110598
110576
110565
110574
110616
110597
110603
110607
110607
110639
110644
110659
110655
110635
110611
110586
110579
110588
110584
110599
110580
110589
110574
110586
110585
110630
110645
110692
110757
110896
111111
111460
111839
112193
112250
111984
111588
111191
110817
110411
110096
109927
109849
109769
109728
109652
109600
109559
109553
109540
109553
109544
109570
109581
109580
109585
109598
109596
109617
109615
109639
109627
109651
109666
109667
109644
109658
109666
109653
109656
109666
109655
109663
109673
109675
109657
109653
109677
109700
109735
109748
109758
109775
109880
110047
110221
110332
110504
110723
110613
110355
110241
110164
110125
110089
110046
109996
110015
110098
110149
110162
110180
110177
110134
110133
110123
110100
110136
110165
110181
110193
110234
110256
110274
110259
110282
110286
110286
110312
110316
110332
110340
110351
110343
110376
110399
110456
110503
110596
110695
110839
111005
111213
111420
111640
111791
111891
111782
111605
111370
111148
110894
110688
110479
110337
110252
110180
110106
110067
110016
109977
109938
109937
109944
109950
109945
109941
109933
109923
109907
109899
109928
109939
109943
109942
109939
109925
109933
109929
109925
109929
109928
109923
109938
109925
109953
109961
109953
109942
109939
109962
109983
109997
110054
110111
110142
110184
110245
110373
110514
110684
110826
110785
110507
110318
110308
110479
110804
111184
111434
111489
111330
111135
110889
110726
110642
110849
111180
110922
110804
110908
111167
111462
111648
111542
111258
111077
111040
111129
111221
110902
110886
111125
111571
111826
111754
111428
111128
110937
110922
111126
111304
110890
110749
110941
111359
111639
111658
111364
111112
111050
111177
111331
110920
110804
110964
111393
111686
111607
111314
111106
111098
111195
111204
110995
110904
111049
111386
111459
111197
111000
110905
110914
111170
111437
111056
110749
110583
110707
110854
110935
111053
111257
111408
111318
111061
110821
110617
110451
110345
110265
110209
110129
110046
110028
110027
110020
109990
109964
109946
109920
109911
109884
109855
109834
109848
109872
109938
110002
110083
110106
110091
110063
110099
110116
110133
110130
110098
110110
110153
110114
110081
109962
109765
109519
109309
109236
109270
109296
109423
109657
109946
110238
110505
110829
111129
111337
111429
111544
111740
112184
113379
115101
115364
116489
116444
117455
117063
118795
122288
124044
118465
104966
64076
14190
3216
2062
2390
2248
2050
1880
1614
1400
1173
971
788
636
643
681
609
566
545
562
548
548
560
552
568
535
545
536
534
543
545
547
532
536
545
535
564
548
548
540
523
534
535
535
549
527
532
535
542
532
536
552
537
535
531
534
543
542
544
531
527
543
529
563
543
546
538
526
539
535
532
542
521
542
532
547
530
536
551
525
536
526
535
542
518
539
525
521
549
528
555
540
550
549
541
554
564
570
586
563
589
598
634
657
682
706
717
733
774
816
881
922
973
1012
1068
1142
1241
1325
1458
1612
1761
1955
2253
2515
2756
2988
3301
3680
4266
5728
7502
9710
12766
13125
11395
11074
11157
10537
9657
9512
9353
9217
9397
9777
11421
14909
16157
16560
17810
18617
18647
1